Wavelength,Spectrum Fit
380,0.304446162618642
381,0.302731260679386
382,0.301122966078593
383,0.299632529395407
384,0.298271150016905
385,0.297049946572686
386,0.295979926696353
387,0.295071956203082
388,0.294336727779935
389,0.293784729292792
390,0.29342712472113
391,0.293272447488996
392,0.293331051955152
393,0.293612335224433
394,0.294125330427842
395,0.294878699687426
396,0.295880674667622
397,0.297139011683499
398,0.298661114359731
399,0.300453790520613
400,0.302523236838315
401,0.304875295199462
402,0.307515011653037
403,0.310447066809056
404,0.313675360446426
405,0.317203241573477
406,0.321033524070368
407,0.32516790530875
408,0.329607703292318
409,0.334353410781229
410,0.339404369009807
411,0.344759550927498
412,0.350417821550179
413,0.356375137016768
414,0.362629852808352
415,0.369178120136212
416,0.37601537316522
417,0.38313632372433
418,0.390533053368449
419,0.398200785843701
420,0.406132244914916
421,0.414315205603867
422,0.422745284587702
423,0.431408857024753
424,0.44030304493268
425,0.449413133385405
426,0.458730903025057
427,0.468247967931971
428,0.477947926108646
429,0.487824179883792
430,0.497859491672919
431,0.508044174179066
432,0.518362918391582
433,0.528805733024417
434,0.539359793505946
435,0.550009216584343
436,0.560740882392138
437,0.571544680344015
438,0.58240457467761
439,0.593304353931862
440,0.604234118611445
441,0.615177837637251
442,0.626122738263078
443,0.637062891698424
444,0.647982865858719
445,0.658874121502803
446,0.669728695371392
447,0.680531800014849
448,0.691272693218272
449,0.70194792988974
450,0.712518244037535
451,0.722991632061037
452,0.73335826176273
453,0.74360903964537
454,0.753734907235356
455,0.763766148332042
456,0.773617643154257
457,0.78335942376236
458,0.792985284798851
459,0.802408747669966
460,0.811703277240804
461,0.820863867959399
462,0.829802274766065
463,0.838595685940915
464,0.847197182108717
465,0.855601758015232
466,0.863804169053849
467,0.871799765001117
468,0.879584108495989
469,0.887152572106889
470,0.894500973688462
471,0.901625577164174
472,0.908522089508028
473,0.915186706104404
474,0.921662183950706
475,0.927852521994692
476,0.933847175920521
477,0.939596015997623
478,0.94514362171734
479,0.950390679182459
480,0.955429849782313
481,0.960258602751741
482,0.964775310051865
483,0.969074756070448
484,0.97305362587144
485,0.976808083400678
486,0.980233025666221
487,0.983425882775023
488,0.986331887383446
489,0.988946281490658
490,0.991264593225902
491,0.993387780573137
492,0.995259855892692
493,0.996823448981156
494,0.998073522864219
495,0.9990590405909
496,0.999666816297594
497,1
498,0.999944175490104
499,0.999603462021948
500,0.998918026652263
501,0.997938443701995
502,0.996547415842754
503,0.994909124834267
504,0.99284875801951
505,0.990475315589595
506,0.98772714838374
507,0.984599702268686
508,0.981088544868011
509,0.977248519568716
510,0.972958802376874
511,0.968274850393472
512,0.963194110851005
513,0.957714056017992
514,0.951893597597934
515,0.945612096379644
516,0.938989638198262
517,0.931966700417061
518,0.924545065382557
519,0.91666541207726
520,0.908391894705594
521,0.899604849947625
522,0.890433249994924
523,0.880758153589061
524,0.870709817871298
525,0.860296238019123
526,0.849400769237794
527,0.838221863331917
528,0.826644350518147
529,0.814743986868376
530,0.802469694783768
531,0.789899257514309
532,0.777048021368415
533,0.763931595932224
534,0.75056713511722
535,0.736972129202356
536,0.723229718964674
537,0.70929420811738
538,0.695184824678592
539,0.680921558516397
540,0.66645853474165
541,0.651749657257782
542,0.636947267706744
543,0.621939592121308
544,0.606880059081329
545,0.591655834643159
546,0.57635424113727
547,0.560995857333394
548,0.545668479723848
549,0.530393017140479
550,0.515257348239889
551,0.500214118083557
552,0.485351530150834
553,0.470688753727873
554,0.456108995451597
555,0.441629899609513
556,0.427268961376129
557,0.413042640962587
558,0.399036350181239
559,0.385196389784532
560,0.371607241634676
561,0.358351892708434
562,0.345305934507541
563,0.332551007216371
564,0.320098948350494
565,0.30796075633174
566,0.296076327879897
567,0.284454202837076
568,0.273171961914072
569,0.262165996164235
570,0.251511636695264
571,0.241143262482514
572,0.231133764041336
573,0.221415398918363
574,0.211987930282694
575,0.202922408101982
576,0.194075380663776
577,0.1855146556708
578,0.177378818697776
579,0.169521255808359
580,0.162149647118218
581,0.155115756369028
582,0.148483237687014
583,0.142173243559837
584,0.136176818791287
585,0.130484247805278
586,0.125014351293484
587,0.119827987621619
588,0.11484305934439
589,0.11004833918586
590,0.105504559483182
591,0.101200383376337
592,0.0970526025888721
593,0.0931222782692636
594,0.0893978185550773
595,0.085796436794084
596,0.0824516373635692
597,0.0792086321989015
598,0.0761294955953279
599,0.0732040135289581
600,0.0704230504587639
601,0.0677773091760677
602,0.0652581913257513
603,0.0628573292420944
604,0.0604937917064778
605,0.0583055045548359
606,0.0561396913475487
607,0.0541352724800707
608,0.0521400494401856
609,0.0502212752410753
610,0.0483727191095289
611,0.0465894531620812
612,0.0449394925190066
613,0.0432721452400344
614,0.0417292393371243
615,0.0401604684128392
616,0.0387085075149023
617,0.0372233818019957
618,0.0358486096523774
619,0.0345812721450296
620,0.0332716381579303
621,0.0320644966049634
622,0.0308836406125784
623,0.029726740000717
624,0.0285922023337018
625,0.0274777488606404
626,0.0263818804888931
627,0.0253030393286453
628,0.0242395496441298
629,0.023190519208514
630,0.0221544970063799
631,0.0212044202650349
632,0.0202650781928183
633,0.0193361255713797
634,0.0184900120418404
635,0.0176524825868365
636,0.0168228045173508
637,0.0160741181254834
638,0.015331838540937
639,0.0146696913879957
640,0.0140129373071796
641,0.0133612969627792
642,0.0127141549668285
643,0.012145458470839
644,0.0115803171442377
645,0.0110188210898512
646,0.0104602212937022
647,0.00990467882256407
648,0.00942622297953147
649,0.00894995196903984
650,0.00840175995684975
651,0.00800401835161155
652,0.00751929824230584
653,0.00709551074628994
654,0.0066957889121978
655,0.00631256181786473
656,0.00594528213020293
657,0.00560172498005871
658,0.00527424419874151
659,0.00496264464458598
660,0.00466691502327562
661,0.00439443674567682
662,0.00413021689597665
663,0.00388167076819196
664,0.00364126396560797
665,0.00342387013013948
666,0.00320707699701792
667,0.00301319502014993
668,0.00282729799172706
669,0.002649308018585
670,0.00247921318540194
671,0.00232445891409149
672,0.00217752400744111
673,0.00203092924682008
674,0.0018995820728246
675,0.00177600944928958
676,0.00166017312360737
677,0.00155205315639859
678,0.00144415081189207
679,0.00135142181697202
680,0.00125890326044445
681,0.00117402842220342
682,0.00108933749549918
683,0.00101976038350155
684,0.000942832118820248
685,0.000881026840356051
686,0.000811827924362496
687,0.000756261612455291
688,0.000700783614767246
689,0.000649908336279986
690,0.000603609364393262
691,0.000560403168420085
692,0.000521041933086152
693,0.00048549618853797
694,0.000451519004369961
695,0.000420605634274494
696,0.000391253357797959
697,0.000364203461857934
698,0.000338705974898579
699,0.000314756043683776
700,0.000293104990081787
701,0.000272242917698222
702,0.000253671017797764
703,0.000235886129261215
704,0.000218883839337876
705,0.000203414610585628
706,0.000188722739783847
707,0.000174810620621275
708,0.000162425213649866
709,0.000150812872023875
710,0.000139974553747817
711,0.000129156266182581
712,0.000119860556993836
713,0.000111333908276439
714,0.000103577342113702
715,9.58329587667317e-05
716,8.88570760124909e-05
717,8.2645087002208e-05
718,7.68238732137172e-05
719,7.13885212386927e-05
720,6.63406240967114e-05
721,6.167748534398e-05
722,5.72521902990314e-05
723,5.3209200503796e-05
724,4.94762094141009e-05
725,4.59764983005761e-05
726,4.27853912098499e-05
727,3.98264486099051e-05
728,3.7024335866737e-05
729,3.44537679195134e-05
730,3.21145175890975e-05
731,2.99308153190668e-05
732,2.7826941257031e-05
733,2.58781623694965e-05
734,2.41595699043473e-05
735,2.24444091743282e-05
736,2.08835315229757e-05
737,1.94012591535794e-05
738,1.80727394771954e-05
739,1.68227202754358e-05
740,1.56508420840227e-05
741,1.46323497673523e-05
742,1.36159456565427e-05
743,1.27529305174893e-05
744,1.18917896394777e-05
745,1.11080150967599e-05
746,1.03256840491724e-05
747,9.62075550959003e-06
748,8.99272445625154e-06
749,8.36631365041857e-06
750,7.83915548548782e-06
751,7.32103425519107e-06
752,6.8343716388087e-06
753,6.37889183452e-06
754,5.96211105461742e-06
755,5.56907960425848e-06
756,5.20719237269696e-06
757,4.86878711018425e-06
758,4.55386897195791e-06
759,4.25480159159865e-06
760,3.97910232319814e-06
761,3.71916394448015e-06
762,3.47495053313917e-06
763,3.25401288906818e-06
764,3.04116516088781e-06
765,2.84393994106139e-06
766,2.66233500994251e-06
767,2.49630480598433e-06
768,2.33827079038931e-06
769,2.18814490464462e-06
770,2.04597437924007e-06
771,1.91928279542668e-06
772,1.79288315952862e-06
773,1.68195288161695e-06
774,1.57128428661937e-06
775,1.4760331083271e-06
776,1.38103932676295e-06
777,1.29385366633834e-06
778,1.21446525179225e-06
779,1.14286400420762e-06
780,1.0714521397631e-06
