Wavelength,Spectrum Fit
380,0.283207167581626
381,0.281612157253251
382,0.280116343964727
383,0.278730196092791
384,0.277464134650396
385,0.27632850578602
386,0.275333552649278
387,0.274489386703668
388,0.27380595857397
389,0.273293028522429
390,0.273040113719791
391,0.272914189396766
392,0.272990130096796
393,0.273277615185382
394,0.273785396047028
395,0.274522638701616
396,0.275497326837681
397,0.276716037652957
398,0.278189401602546
399,0.279923648553252
400,0.281922542584636
401,0.284195195796254
402,0.286744288157147
403,0.289577802904562
404,0.292699209911102
405,0.296113326002834
406,0.299826298802653
407,0.303835798392673
408,0.308144719161592
409,0.312753334698679
410,0.317655374195597
411,0.322849770792907
412,0.328342617632592
413,0.334111914336411
414,0.340174162326579
415,0.346525613459712
416,0.353161865079238
417,0.360077871483361
418,0.367248372630917
419,0.374686666332031
420,0.382385872160922
421,0.390299365348484
422,0.398458317289186
423,0.406815032042026
424,0.415419256285341
425,0.424222338171732
426,0.433233958677767
427,0.442463405316573
428,0.451860835478848
429,0.46145444274343
430,0.471193771108457
431,0.481086889743724
432,0.491102474320456
433,0.501248216991199
434,0.511512087349399
435,0.521862367888994
436,0.532286882492352
437,0.542793037871727
438,0.553349069961546
439,0.563923270412647
440,0.574523219417693
441,0.585117425642081
442,0.595694152177435
443,0.606281048901635
444,0.6168471784107
445,0.627401041324404
446,0.637951399064894
447,0.648468088699989
448,0.658940844653194
449,0.669398918787672
450,0.679675854117094
451,0.689860366148582
452,0.699943497108382
453,0.709916634810913
454,0.719771515134725
455,0.729696271468004
456,0.739291237878697
457,0.748941287396012
458,0.758639534682225
459,0.767987304870105
460,0.777370465919208
461,0.786783083779415
462,0.795827389648177
463,0.80489014323012
464,0.813770180175763
465,0.822462646606158
466,0.830962919749075
467,0.839266590079405
468,0.847369442891625
469,0.85526743944451
470,0.862956697814362
471,0.870433473588794
472,0.87769414052864
473,0.884735171320961
474,0.891749197313841
475,0.898340675526243
476,0.904898420905348
477,0.911223036353893
478,0.917507293501043
479,0.923355710718553
480,0.929157110068763
481,0.934908112736801
482,0.940213118856303
483,0.945460799703358
484,0.950255413168258
485,0.954985471940447
486,0.95925505251856
487,0.963452475040981
488,0.967377694671819
489,0.971026642963876
490,0.97439513994688
491,0.9778710717742
492,0.981253950998658
493,0.984343183519602
494,0.98713416518
495,0.989818292542886
496,0.991998613497708
497,0.994062472575213
498,0.995612804120356
499,0.997036877314173
500,0.998133681603274
501,0.999094407291825
502,0.999522014595047
503,1
504,0.999935415980584
505,0.999715921829531
506,0.999141083091718
507,0.998206782585259
508,0.996909171371592
509,0.995440807733378
510,0.993406330552023
511,0.990999068631601
512,0.988216716887781
513,0.985057480099219
514,0.981716217527362
515,0.977800116716954
516,0.973701401198888
517,0.969224719214615
518,0.964371565472877
519,0.958948134923508
520,0.953153644900536
521,0.946599897333082
522,0.93968397023957
523,0.932019485614292
524,0.924005384747896
525,0.915649372580926
526,0.906567922689864
527,0.897358938865212
528,0.887640798728323
529,0.877621095658554
530,0.86711614154184
531,0.856335315692658
532,0.845292743337585
533,0.834003347074034
534,0.822482797739353
535,0.810747460107331
536,0.799010429002236
537,0.787093182071095
538,0.775013798988035
539,0.762790798941036
540,0.750246976747919
541,0.7372054282505
542,0.72407776576934
543,0.710491385168471
544,0.696858158253151
545,0.682805608313001
546,0.668549511951307
547,0.654109459352021
548,0.639700986949535
549,0.625343333251927
550,0.611251577221129
551,0.597248304654157
552,0.583547941525631
553,0.570168424895154
554,0.556735065412606
555,0.543264885828171
556,0.529774390811221
557,0.516279527164688
558,0.502991739152764
559,0.489729643984704
560,0.476703371554613
561,0.464122334198399
562,0.451606901191713
563,0.439364927528248
564,0.427407333530431
565,0.415744159790512
566,0.404188433491282
567,0.392748321497324
568,0.381627096346487
569,0.37063482107882
570,0.359972703163137
571,0.349448694389667
572,0.339261856554943
573,0.329217974747784
574,0.319317842927912
575,0.309757272950739
576,0.30014273243396
577,0.290667940696953
578,0.281721713859112
579,0.272907533488387
580,0.264808452212148
581,0.257026202736871
582,0.249750022040364
583,0.242776246746678
584,0.23609667223412
585,0.229702535085526
586,0.2233884974258
587,0.217341011696026
588,0.211354020419493
589,0.205417318971642
590,0.199716631008635
591,0.194241490614847
592,0.188785310165617
593,0.183533728233264
594,0.178476382650678
595,0.173406962825377
596,0.168707636046228
597,0.163976423680719
598,0.159399900692237
599,0.154968845228947
600,0.150674357473721
601,0.146507878430214
602,0.142461203920308
603,0.138526494169813
604,0.134500184447741
605,0.130767366785063
606,0.126929124219551
607,0.123371286297477
608,0.119695663225241
609,0.116092702045563
610,0.112557096865468
611,0.109083872427769
612,0.105864466643851
613,0.102502337676411
614,0.0993856147772347
615,0.0961183247654906
616,0.0930891373283828
617,0.0899025913635121
618,0.086947840430484
619,0.0842220693560345
620,0.0813304807920662
621,0.078662851797919
622,0.0760208567276328
623,0.0734024349155384
624,0.0708056842211331
625,0.0682288500647297
626,0.0656703150278715
627,0.0631285890204681
628,0.0606023000103352
629,0.0580901853057229
630,0.0555910833773018
631,0.0533000211383755
632,0.0510199219866146
633,0.0487498839413836
634,0.0466851734349364
635,0.0446289347345537
636,0.0425804693918679
637,0.0407352312765436
638,0.0388965371712546
639,0.03725994226039
640,0.0356288564579568
641,0.0340028255860063
642,0.032381433092656
643,0.0309603919032603
644,0.0295432567731793
645,0.02812970647964
646,0.0267194464810804
647,0.0253122067059087
648,0.0241038344560382
649,0.0228980077339818
650,0.0214984234002399
651,0.0204931753425406
652,0.0192545846906733
653,0.0181746807576325
654,0.0171552688225086
655,0.0161766043307277
656,0.0152385633934895
657,0.0143606418530984
658,0.0135231259458915
659,0.0127259199982722
660,0.0119689362144078
661,0.0112717035114219
662,0.0105949289422008
663,0.00995815410444574
664,0.00934170716715977
665,0.00878474987522909
666,0.00822840117685537
667,0.00773144126416628
668,0.00725460678842407
669,0.00679785698908579
670,0.00636115440832145
671,0.00596407411127565
672,0.00558697495509539
673,0.00521021834673092
674,0.00487299651352747
675,0.00455567534947337
676,0.00425823221306808
677,0.00398064627219108
678,0.00370328886247127
679,0.00346536132576639
680,0.00322762843090258
681,0.00300968471447162
682,0.00279190690850565
683,0.00261350131233497
684,0.00241562775623634
685,0.00225710394981716
686,0.00207909148540341
687,0.00193648779403127
688,0.00179398735020992
689,0.00166334806958255
690,0.00154456277577674
691,0.00143370294962341
692,0.00133272343167296
693,0.00124161858412616
694,0.00115450035478551
695,0.00107528583759236
696,0.00100004869691039
697,0.000930745784041928
698,0.000865412363825039
699,0.000804044938217165
700,0.000748601223784586
701,0.000695156333578783
702,0.00064762940357776
703,0.000602095980324718
704,0.000558553700935706
705,0.000518961328905286
706,0.000481355892382229
707,0.000445735519657559
708,0.000414059427583562
709,0.000384365062841018
710,0.000356650940178147
711,0.000328954734645537
712,0.000305197070672498
713,0.000283415818245323
714,0.000263609883237093
715,0.000243817302159053
716,0.000225998084196092
717,0.00021015135757905
718,0.000195295839130362
719,0.000181430778883783
720,0.000168555481036104
721,0.000156669299911665
722,0.000145379446366817
723,0.000135077553962282
724,0.000125567011236192
725,0.000116651243576004
726,0.000108525900376116
727,0.000100994472789457
728,9.38604812803131e-05
729,8.73196633541691e-05
730,8.13716867686171e-05
731,7.58201477023271e-05
732,7.04686639944964e-05
733,6.55130634487483e-05
734,6.11491925098957e-05
735,5.67885351793841e-05
736,5.28230661907499e-05
737,4.90564903749606e-05
738,4.56847162713681e-05
739,4.2511475397669e-05
740,3.95366061422408e-05
741,3.69560529159474e-05
742,3.43774856243936e-05
743,3.21929634881583e-05
744,3.00101748840616e-05
745,2.80251012668804e-05
746,2.60415419117422e-05
747,2.42554931172469e-05
748,2.26668628992501e-05
749,2.10794705274955e-05
750,1.97481593818979e-05
751,1.84375408628961e-05
752,1.72063737627072e-05
753,1.60545930367831e-05
754,1.50017474581601e-05
755,1.40085613461795e-05
756,1.30945912518133e-05
757,1.22401782330251e-05
758,1.14452760969557e-05
759,1.06902321919404e-05
760,9.99461568134432e-06
761,9.33877937761699e-06
762,8.72268804543416e-06
763,8.16591823507293e-06
764,7.62922015498281e-06
765,7.13217448823325e-06
766,6.67475428584986e-06
767,6.25693433577316e-06
768,5.8590815529221e-06
769,5.48117385911927e-06
770,5.12319058923078e-06
771,4.80472189026812e-06
772,4.4865306612788e-06
773,4.2078189261425e-06
774,3.92935180997782e-06
775,3.69033341687621e-06
776,3.4515308151842e-06
777,3.23254043240454e-06
778,3.03335002221566e-06
779,2.85394810610879e-06
780,2.67471442892925e-06
