Wavelength,Spectrum Fit
380,0.344734877938697
381,0.344412635501448
382,0.344304788423658
383,0.344423391298998
384,0.344780081316941
385,0.34538602931423
386,0.346251891322469
387,0.34738776091104
388,0.348803122633057
389,0.350506806888213
390,0.35250694652002
391,0.354810935465864
392,0.357425389776386
393,0.360356111315726
394,0.363608054446168
395,0.367185295989458
396,0.371091008742573
397,0.375327438807964
398,0.379895886977309
399,0.384796694383584
400,0.39002923260906
401,0.395591898406595
402,0.401482113158763
403,0.407696327163972
404,0.414230028801242
405,0.421077758586006
406,0.428233128088616
407,0.435688843645509
408,0.443436734750929
409,0.451467786974921
410,0.459772179211797
411,0.468339325022876
412,0.477157917798554
413,0.4862159794283
414,0.495500912133485
415,0.50499955308758
416,0.514698231421696
417,0.524582827191076
418,0.534638831860393
419,0.5448514098529
420,0.555205460700707
421,0.565685681331074
422,0.576276628026471
423,0.58696277760433
424,0.597728587375791
425,0.608558553460944
426,0.619437267061081
427,0.630349468315526
428,0.641280097401605
429,0.652214342570517
430,0.663137684848738
431,0.674035939173619
432,0.684895291772281
433,0.695702333634186
434,0.7064440899693
435,0.717108045584753
436,0.727682166153095
437,0.738154915383688
438,0.748515268145418
439,0.758752719622914
440,0.768857290619849
441,0.778819529151054
442,0.788630508490108
443,0.798281821860554
444,0.80776557397682
445,0.817074369655353
446,0.826201299727473
447,0.83513992449305
448,0.84388425495855
449,0.852428732104512
450,0.860768204426208
451,0.868897903987629
452,0.87681342122302
453,0.884510678712541
454,0.891985904149435
455,0.899235602705573
456,0.906256528991019
457,0.913045658791219
458,0.9196001607532
459,0.925917368179851
460,0.931994751079211
461,0.937829888604005
462,0.943420442005599
463,0.948764128216283
464,0.953858694164479
465,0.958701891919339
466,0.963291454754174
467,0.967625074212542
468,0.971700378256551
469,0.975514910574091
470,0.979066111120329
471,0.982351297968904
472,0.98536765054976
473,0.988112194353527
474,0.990581787186583
475,0.992773107066451
476,0.994682641853786
477,0.996306680724716
478,0.997641307595606
479,0.998682396621029
480,0.999425609894695
481,0.999866397491863
482,1
483,0.999821453691697
484,0.999325598499557
485,0.99850708895649
486,0.997360408265799
487,0.995879885663233
488,0.994059717226837
489,0.991893990279646
490,0.989376711513988
491,0.986501838944139
492,0.983263317765418
493,0.979655120162377
494,0.97567128906597
495,0.971305985809495
496,0.966553541575779
497,0.96140851246388
498,0.955865737933042
499,0.949920402306096
500,0.943568098934795
501,0.93680489654795
502,0.929627407221185
503,0.922032855327521
504,0.914019146752805
505,0.905584937592871
506,0.896729701491923
507,0.887453794738201
508,0.877758518204893
509,0.867646175214905
510,0.857120124418729
511,0.84618482680736
512,0.834845886036703
513,0.823110081317345
514,0.81098539222191
515,0.798481014880028
516,0.785607369166103
517,0.772376096632245
518,0.758800049096487
519,0.744893267956654
520,0.730670954460715
521,0.716149431317094
522,0.701346096171146
523,0.686279367596677
524,0.670968624357143
525,0.655434138766119
526,0.63969700502893
527,0.623779063467071
528,0.607702821513353
529,0.591491372331663
530,0.575168311840093
531,0.558757654829693
532,0.542283750752258
533,0.525771199626647
534,0.509244768372829
535,0.492729307743935
536,0.476249669892174
537,0.459830626477039
538,0.44349678713003
539,0.427272517999485
540,0.411181860058237
541,0.395248446848469
542,0.379495421369595
543,0.363945351839546
544,0.348620146276104
545,0.333540965815688
546,0.318728137093312
547,0.304201063965124
548,0.289978139287894
549,0.27607665751727
550,0.262512729289626
551,0.249301199070593
552,0.236455567615866
553,0.223987920391164
554,0.211908863636222
555,0.200227470257863
556,0.188951236322742
557,0.17808605000897
558,0.167636174766268
559,0.15760424529324
560,0.147991282399489
561,0.138796722324617
562,0.130018455690237
563,0.12165289848072
564,0.113695065531633
565,0.10613866903838
566,0.0989762182604697
567,0.0921991665338878
568,0.085798109942625
569,0.0797628945769466
570,0.0740830496051166
571,0.068747879423074
572,0.0637474197382513
573,0.0590724904205265
574,0.0547161196621623
575,0.0506763204789102
576,0.0469527632977984
577,0.0435550726475256
578,0.04051134134614
579,0.0378410854561268
580,0.0356009227927538
581,0.0337867070896272
582,0.0323837785309297
583,0.0313004419634796
584,0.0304435794578984
585,0.0297335544494883
586,0.0290864954990797
587,0.0284961980838616
588,0.0279144656004991
589,0.0273301595058117
590,0.0267670049617628
591,0.0262215550549064
592,0.0256619645539452
593,0.0251167974674434
594,0.0245845654774792
595,0.0240347862964832
596,0.0235262680478619
597,0.0229986456494175
598,0.0224811323725792
599,0.0219727874550891
600,0.0214732884494503
601,0.020981913427496
602,0.0204982295776981
603,0.0200216990397401
604,0.0195215408650794
605,0.0190574905335078
606,0.0185688257177846
607,0.0181154184400935
608,0.0176365142333333
609,0.0171622072283824
610,0.0166916763595975
611,0.0162248832626247
612,0.0157916449609614
613,0.0153312941263251
614,0.0149039693586263
615,0.0144489380186745
616,0.0140265129166423
617,0.0135758948648389
618,0.0131576311846574
619,0.0127715518401106
620,0.0123566040515725
621,0.0119737876570221
622,0.0115922352192562
623,0.0112116988610514
624,0.0108323875924435
625,0.0104538549798381
626,0.0100761633554985
627,0.00969923075519166
628,0.00932278983520654
629,0.00894710775458339
630,0.00857193163628554
631,0.00822792792476893
632,0.00788418821839069
633,0.00754113118458493
634,0.00722882117566074
635,0.00691696719903692
636,0.0066055268011732
637,0.00632493229265034
638,0.00604453287834346
639,0.00579512438116654
640,0.00554588442798875
641,0.00529693992337879
642,0.00504812540040462
643,0.00483024956290117
644,0.00461230031287384
645,0.00439459431212343
646,0.0041767652881158
647,0.0039591469723031
648,0.00377246561901556
649,0.00358565145035134
650,0.00336828319014804
651,0.0032122908921079
652,0.00301972352354045
653,0.0028516076799758
654,0.00269290920856133
655,0.00254054300954604
656,0.00239416677424457
657,0.00225720241164518
658,0.00212648482275891
659,0.00200192826336234
660,0.00188358621074021
661,0.0017745418829271
662,0.00166861206887482
663,0.00156889796032955
664,0.00147229771197318
665,0.00138498749983063
666,0.00129772065357727
667,0.00121973202689769
668,0.00114487701514263
669,0.00107312322414279
670,0.00100448774201598
671,0.000942065062054468
672,0.000882745980187321
673,0.00082345512988222
674,0.000770362581196383
675,0.000720393854931743
676,0.000673534212602735
677,0.000629781834387951
678,0.000586041533157667
679,0.000548508667666621
680,0.000511005615039866
681,0.000476598472274687
682,0.000442220901401282
683,0.000414039617835631
684,0.000382770904771101
685,0.000357719529189493
686,0.00032956295239018
687,0.000307021699589078
688,0.000284478094301089
689,0.000263811192786169
690,0.000245004681567658
691,0.000227455273251314
692,0.000211478863730812
693,0.000197055750464525
694,0.000183261447208761
695,0.000170715551358775
696,0.000158798828715942
697,0.000147817136755718
698,0.000137463094358382
699,0.000127735260124513
700,0.00011894661899134
701,0.000110471799599697
702,0.000102933035620294
703,9.57101405199377e-05
704,8.88012949178638e-05
705,8.25179289811985e-05
706,7.65473427862647e-05
707,7.08927080752156e-05
708,6.58622188722072e-05
709,6.11446106190733e-05
710,5.67416437437625e-05
711,5.23418257283564e-05
712,4.8566586393683e-05
713,4.51046244244732e-05
714,4.195744549753e-05
715,3.88103891913455e-05
716,3.59781983518156e-05
717,3.34577945565922e-05
718,3.1096667498996e-05
719,2.88914573320387e-05
720,2.68438934410936e-05
721,2.49522838961003e-05
722,2.31577000454407e-05
723,2.15179195171648e-05
724,2.00045318963689e-05
725,1.8585631799607e-05
726,1.72926499141609e-05
727,1.60938595837592e-05
728,1.49583995951615e-05
729,1.3917151877369e-05
730,1.29701601122578e-05
731,1.20861721666679e-05
732,1.12339756087832e-05
733,1.04448161395233e-05
734,9.749771778769e-06
735,9.055103240002e-06
736,8.42330724029477e-06
737,7.82315626262987e-06
738,7.28572150879529e-06
739,6.78009727344862e-06
740,6.30611394574441e-06
741,5.89488325627892e-06
742,5.48384969134928e-06
743,5.13575247921799e-06
744,4.78786494390711e-06
745,4.47146171473771e-06
746,4.15509047576334e-06
747,3.87037616506841e-06
748,3.61698150820411e-06
749,3.36395786728245e-06
750,3.15148991532082e-06
751,2.94251574787681e-06
752,2.746259639465e-06
753,2.56255037905834e-06
754,2.39452087935601e-06
755,2.23609624782785e-06
756,2.09030815662472e-06
757,1.95398673907707e-06
758,1.82716902485333e-06
759,1.70670233278904e-06
760,1.5957049874818e-06
761,1.49104383248971e-06
762,1.39271579390971e-06
763,1.30385910456355e-06
764,1.21819990623267e-06
765,1.13885920670842e-06
766,1.06585429865512e-06
767,9.99166910979253e-07
768,9.35678642368126e-07
769,8.75336161284013e-07
770,8.18191864817035e-07
771,7.67350659153585e-07
772,7.16533471336912e-07
773,6.72036658327093e-07
774,6.27564288449177e-07
775,5.89392766539563e-07
776,5.51263517486227e-07
777,5.16297114453595e-07
778,4.84493629448712e-07
779,4.55853177457524e-07
780,4.27236452848929e-07
